X-Lamb;Y-Lamb;Hauteur (m);Epaisseur (m);Densite (%);Leaf wall area (m².ha-1);Pourcentage de la dose homologuée à appliquer;Pourcentage du taux de recuperation
766321.36;6284654.53;0.19;0.1;24;1520;20.8;61
766321.45;6284651.35;0.17;0.13;23;1360;20.3;61.8
766321.52;6284648.57;0.12;0.09;29;960;22.1;57
766321.58;6284645.73;0.11;0.12;27;880;21.3;58.6
766321.67;6284642.5;0.09;0.2;32;720;24.2;54.6
766321.73;6284640.06;0.12;0.14;23;960;19.7;61.8
766321.81;6284636.86;0.11;0.17;32;880;24.3;54.6
766321.94;6284633.89;0.14;0.12;24;1120;20.3;61
766321.98;6284630.82;0.14;0.12;15;1120;25.9;52.2
766322.02;6284628.26;0.06;0.32;29;480;23.4;57
766322.12;6284624.9;0.08;0.08;31;640;22.4;55.4
766322.13;6284621.67;0.12;0.07;26;960;20.5;59.4
766322.28;6284618.34;0.16;0.08;7;1280;13.6;74.6
766322.32;6284616.36;0.16;0.08;28;1280;22.1;57.8
766322.37;6284612.67;0.17;0.1;27;1360;22;58.6
766322.42;6284610.18;0.03;0.07;9;240;9.9;81
766322.54;6284606.76;0.15;0.11;33;1200;24.8;53.8
766322.64;6284604.45;0.09;0.1;14;720;15.4;69
766322.73;6284600.77;0.14;0.1;30;1120;23;56.2
766322.76;6284598.74;0.11;0.14;20;880;28.5;48.2
766322.84;6284595.12;0.09;0.08;33;720;23.6;53.8
766322.92;6284591.53;0.3;0.02;13;2400;13.3;77.8
766322.95;6284588.77;0.13;0.09;23;1040;19.5;61.8
766323.08;6284586.24;0.13;0.12;22;1040;19.3;62.6
766323.19;6284583.85;0.11;0.08;20;880;27.8;48.2
766323.29;6284580.39;0.14;0.09;16;1120;16.7;67.4
766323.33;6284577.33;0.16;0.09;13;1280;15.8;69.8
766323.34;6284574.57;0.12;0.16;18;960;27.7;49.8
766323.47;6284572.27;0.14;0.12;24;1120;20.3;61
766323.61;6284568.3;0.11;0.1;7;880;13.2;74.6
766323.65;6284564.83;0.1;0.17;17;800;26.8;50.6
766323.69;6284562.83;0.12;0.08;20;960;28;48.2
766323.81;6284558.38;0.12;0.12;21;960;29;47.4
766323.75;6284557.07;0.16;0.11;17;1280;27.2;50.6
766323.85;6284553.88;0.16;0.06;25;1280;20.5;60.2
766323.92;6284550.66;0.2;0.07;16;1600;17.2;67.4
766323.94;6284547.99;0.18;0.09;26;1440;21.5;59.4
766324.04;6284545.47;0.12;0.08;15;960;25.1;52.2
766324.2;6284542.46;0.15;0.12;28;1200;22.3;57.8
766324.38;6284538.79;0.15;0.15;24;1200;20.7;61
766324.43;6284536.47;0.18;0.1;26;1440;21.6;59.4
766324.39;6284533.06;0.11;0.13;17;880;17;66.6
766321.75;6284531.24;0.17;0.26;21;1360;21.7;47.4
766319.46;6284532.76;0.14;0.14;17;1120;27.2;50.6
766319.29;6284535.92;0.13;0.15;24;1040;21.5;45
766319.1;6284539.65;0.12;0.12;20;960;28.4;48.2
766319.08;6284542.11;0.12;0.19;25;960;21.1;60.2
766319.13;6284545.55;0.1;0.06;9;800;10.4;81
766319.02;6284547.25;0.13;0.13;29;1040;22.6;57
766318.96;6284550.41;0.07;0.12;20;560;27.5;48.2
766318.94;6284552.57;0.16;0.16;19;1280;24.6;105
766318.84;6284556.01;0.1;0.09;16;800;25.4;51.4
766318.81;6284559.29;0.12;0.07;27;960;21;58.6
766318.64;6284562.67;0.17;0.11;18;1360;28;49.8
766318.56;6284564.66;0.12;0.12;19;960;27.8;49
766318.49;6284568.4;0.11;0.15;24;880;21.1;45
766318.47;6284571.25;0.12;0.14;21;960;29.3;47.4
766318.29;6284574.07;0.11;0.19;32;880;24.5;54.6
766318.27;6284576.51;0.13;0.1;31;1040;23.4;55.4
766318.21;6284579.28;0.09;0.09;32;720;23.2;54.6
766318.1;6284581.54;0.05;0.22;24;400;19.9;61
766318.05;6284585.33;0.11;0.13;27;880;21.4;58.6
766317.97;6284587.45;0.17;0.17;13;1360;16.4;69.8
766317.94;6284592.35;0.12;0.07;17;960;16.7;66.6
766317.83;6284594.47;0.11;0.07;16;880;25.4;51.4
766317.75;6284597.38;0.12;0.12;32;960;23.9;54.6
766317.73;6284600.1;0.1;0.16;19;800;27.9;49
766317.69;6284602.75;0.12;0.17;23;960;20.9;45.8
766317.57;6284605.98;0.11;0.14;29;880;22.4;57
766317.51;6284609.26;0.07;0.2;31;560;23.4;55.4
766317.41;6284611.27;0.19;0.18;28;1520;23.5;57.8
766317.37;6284615.15;0.08;0.27;15;640;26.4;52.2
766317.29;6284618;0.16;0.22;30;1280;24.5;56.2
766317.25;6284621.1;0.14;0.19;23;1120;20.4;61.8
766317.16;6284624.14;0.15;0.17;21;1200;19.5;63.4
766317.08;6284625.91;0.19;0.18;23;1520;21.1;61.8
766317.02;6284630.06;0.13;0.12;33;1040;24.6;53.8
766316.96;6284632.29;0.15;0.13;24;1200;20.5;61
766316.86;6284635.42;0.1;0.24;20;800;19;64.2
766316.87;6284638.3;0.13;0.22;15;1040;26.8;52.2
766316.76;6284640.83;0.11;0.21;34;880;25.7;53
766316.63;6284643.84;0.08;0.37;18;640;16.1;41.8
766311.76;6284640.84;0.33;0.2;10;2640;9.3;92.2
766311.77;6284637.32;0.09;0.18;12;720;15.2;70.6
766311.85;6284635.51;0.17;0.12;26;1360;21.7;59.4
766312;6284632.38;0.15;0.35;14;1200;18;69
766311.98;6284630.59;0.12;0.07;12;960;14.8;70.6
766311.99;6284626.78;0.16;0.14;26;1280;21.7;59.4
766312.1;6284623.72;0.11;0.1;21;880;18.4;63.4
766312.2;6284620.57;0.16;0.12;18;1280;18;65.8
766312.29;6284618.15;0.17;0.12;26;1360;21.7;59.4
766312.34;6284615.15;0.17;0.15;18;1360;18.3;65.8
766312.42;6284611.69;0.21;0.16;23;1680;21.2;61.8
766312.53;6284608.72;0.13;0.14;13;1040;12.3;77.8
766312.59;6284605.8;0.19;0.1;12;1520;15.8;70.6
766312.61;6284603.46;0.13;0.25;8;1040;9.8;86.6
766312.63;6284600.11;0.15;0.16;7;1200;14;74.6
766312.71;6284597.33;0.17;0.11;20;1360;18.8;64.2
766312.82;6284594.2;0.14;0.1;28;1120;22;57.8
766312.88;6284591.39;0.14;0.07;34;1120;24.8;53
766313.07;6284588.55;0.11;0.12;26;880;22;43.4
766313.16;6284585.49;0.17;0.12;19;1360;28.7;49
766313.3;6284581.65;0.12;0.16;28;960;24.1;41.8
766313.26;6284579.52;0.13;0.11;24;1040;21;45
766313.29;6284576.26;0.16;0.14;27;1280;24;42.6
766313.4;6284573.11;0.16;0.08;25;1280;21.9;44.2
766313.49;6284569.81;0.14;0.07;32;1120;23.7;54.6
766313.61;6284566.92;0.16;0.09;20;1280;28.8;48.2
766313.62;6284564.39;0.09;0.06;14;720;29.6;45
766313.74;6284561.65;0.14;0.07;32;1120;23.7;54.6
766313.8;6284558.64;0.13;0.1;24;1040;20.9;45
766313.94;6284556.11;0.2;0.14;34;1600;26.5;53
766313.99;6284552.47;0.14;0.12;15;1120;22;44.2
766314;6284550.23;0.14;0.15;30;1120;23.5;56.2
766314.14;6284546.65;0.13;0.1;31;1040;23.4;55.4
766314.23;6284543.8;0.11;0.09;20;880;27.9;48.2
766314.36;6284540.92;0.11;0.13;31;880;23.3;55.4
766314.41;6284536.45;0.36;0.02;19;2880;20.2;65
766314.52;6284534.49;0.19;0.15;21;1520;19.9;63.4
766314.5;6284532.04;0.12;0.15;33;960;24.7;53.8
766309.53;6284532.03;0.14;0.13;21;1120;19;63.4
766309.44;6284533.51;0.13;0.18;20;1040;18.9;64.2
766309.34;6284537.29;0.11;0.17;22;880;30;46.6
766309.27;6284539.65;0.1;0.09;18;800;22.8;41.8
766309.25;6284541.73;0.38;0.38;14;3040;17;77
766309.18;6284545.53;0.11;0.1;17;880;26.3;50.6
766309.11;6284548.24;0.19;0.07;20;1520;29.1;48.2
766309.03;6284551.79;0.15;0.13;22;1200;19.6;62.6
766308.95;6284554.17;0.12;0.11;31;960;23.3;55.4
766308.84;6284557.34;0.2;0.1;31;1600;24.5;55.4
766308.82;6284560.11;0.11;0.12;25;880;20.3;60.2
766308.75;6284562.84;0.13;0.17;23;1040;21.1;45.8
766308.65;6284565.58;0.12;0.13;18;960;27.3;49.8
766308.54;6284569.07;0.09;0.08;15;720;20.5;44.2
766308.48;6284571.97;0.16;0.12;21;1280;29.8;47.4
766308.43;6284574.5;0.14;0.08;23;1120;19.5;61.8
766308.36;6284576.9;0.15;0.09;23;1200;19.7;61.8
766308.32;6284581.07;0.15;0.11;20;1200;18.6;64.2
766308.22;6284583.01;0.1;0.07;10;800;13.9;72.2
766308.12;6284586.81;0.1;0.15;31;800;23.4;55.4
766308;6284589.57;0.08;0.15;21;640;18.4;63.4
766307.93;6284592.34;0.1;0.16;16;800;26.2;51.4
766307.88;6284595.86;0.09;0.11;26;720;21.5;43.4
766307.79;6284598.35;0.18;0.1;19;1440;28.7;49
766307.72;6284600.96;0.11;0.12;16;880;25.9;51.4
766307.6;6284604.53;0.11;0.09;23;880;29.7;45.8
766307.5;6284607.08;0.13;0.09;16;1040;25.9;51.4
766307.4;6284609.85;0.12;0.08;17;960;21.5;57.8
766307.33;6284612.76;0.2;0.08;18;1600;28.2;49.8
766307.28;6284615.55;0.12;0.1;26;960;22;43.4
766307.26;6284618.36;0.11;0.09;22;880;29.1;46.6
766307.16;6284621.46;0.13;0.09;19;1040;27.7;49
766307.09;6284624.01;0.12;0.12;18;960;27.2;49.8
766307.08;6284627.68;0.1;0.1;24;800;20.3;45
766307.03;6284630.07;0.1;0.12;17;800;26.3;50.6
766306.88;6284633.37;0.12;0.1;19;960;23.7;54.6
766306.89;6284636.6;0.08;0.11;17;640;25.9;50.6
766306.79;6284638.12;0.06;0.12;20;480;20.6;58.6
766304.34;6284640.34;0.21;0.14;21;1680;21;47.4
766301.84;6284637.06;0.12;0.1;15;960;25.3;52.2
766301.92;6284633.77;0.11;0.13;27;880;21.4;58.6
766302.03;6284631.39;0.14;0.15;28;1120;22.5;57.8
766302.06;6284628.57;0.12;0.08;11;960;14.5;71.4
766302.12;6284625.06;0.14;0.08;28;1120;21.8;57.8
766302.23;6284622.48;0.14;0.15;7;1120;13.8;74.6
766302.25;6284619.95;0.14;0.12;30;1120;23.2;56.2
766302.33;6284616.78;0.1;0.11;12;800;14.9;70.6
766302.46;6284613.33;0.12;0.08;11;960;14.5;71.4
766302.53;6284610.49;0.17;0.12;13;1360;12.6;77.8
766302.56;6284607.69;0.13;0.07;18;1040;17.2;65.8
766302.67;6284604.18;0.13;0.08;15;1040;16.1;68.2
766302.7;6284601.98;0.12;0.07;24;960;19.6;61
766302.74;6284598.92;0.15;0.14;25;1200;21.1;60.2
766302.84;6284596.04;0.14;0.09;15;1120;16.3;68.2
766302.91;6284592.87;0.11;0.14;28;880;21.9;57.8
766303.01;6284590.19;0.14;0.14;29;1120;22.9;57
766303.06;6284587.09;0.12;0.11;22;960;19.1;62.6
766303.12;6284584.27;0.15;0.1;10;1200;14.6;72.2
766303.17;6284581.53;0.17;0.12;28;1360;22.6;57.8
766303.2;6284578.25;0.15;0.09;31;1200;23.6;55.4
766303.36;6284575.14;0.17;0.09;19;1360;18.3;65
766303.43;6284572.62;0.17;0.07;12;1360;15.4;70.6
766303.5;6284569.59;0.04;0.19;10;320;10.9;80.2
766303.54;6284566.07;0.16;0.08;33;1280;24.7;53.8
766303.64;6284563.22;0.11;0.15;29;880;22.5;57
766303.75;6284559.76;0.24;0.11;13;1920;16.8;69.8
766303.87;6284557.61;0.17;0.1;32;1360;24.5;54.6
766303.92;6284554.72;0.18;0.13;20;1440;19.1;64.2
766304.06;6284551.43;0.17;0.13;31;1360;24.3;55.4
766304.14;6284549.28;0.17;0.14;19;1360;18.7;65
766304.16;6284546.04;0.15;0.07;34;1200;25;53
766304.2;6284542.72;0.14;0.09;32;1120;23.9;54.6
766304.27;6284539.68;0.15;0.06;13;1200;12.1;77.8
766304.4;6284536.63;0.19;0.16;11;1520;15.8;71.4
766304.51;6284533.21;0.15;0.23;18;1200;18.7;65.8
766304.53;6284531.44;0.19;0.21;14;1520;17.4;69
766299.42;6284532.33;0.19;0.06;19;1520;18.3;65
766299.44;6284534.47;0.13;0.06;27;1040;21;58.6
766299.32;6284538.05;0.08;0.05;25;640;19.3;60.2
766299.17;6284540.64;0.12;0.09;28;960;21.6;57.8
766299.19;6284543.08;0.12;0.1;20;960;28.2;48.2
766299.1;6284546.33;0.16;0.07;17;1280;26.8;50.6
766298.96;6284548.98;0.12;0.06;17;960;16.6;66.6
766298.87;6284552.11;0.15;0.08;31;1200;23.5;55.4
766298.75;6284555.55;0.1;0.11;34;800;24.5;53
766298.7;6284557.8;0.11;0.07;20;880;27.7;48.2
766298.61;6284560.65;0.13;0.07;26;1040;21.8;43.4
766298.54;6284563.89;0.13;0.09;32;1040;23.8;54.6
766298.56;6284567.22;0.12;0.16;25;960;20.8;60.2
766298.55;6284569.32;0.12;0.16;15;960;25.9;52.2
766298.49;6284572.3;0.13;0.14;19;1040;28.2;49
766298.39;6284575.16;0.13;0.1;17;1040;26.6;50.6
766298.33;6284578.29;0.1;0.11;18;800;26.8;49.8
766298.28;6284580.67;0.1;0.1;20;800;17.9;64.2
766298.2;6284583.81;0.12;0.15;25;960;20.7;60.2
766298.02;6284587.44;0.12;0.11;15;960;25.4;52.2
766297.96;6284589.75;0.1;0.14;22;800;23.8;54.6
766297.92;6284592.97;0.11;0.13;28;880;29.6;46.6
766297.84;6284595.57;0.11;0.14;20;880;23.7;41.8
766297.8;6284598.7;0.12;0.11;30;960;28.3;48.2
766297.71;6284601.73;0.14;0.08;30;1120;22.8;56.2
766297.6;6284604.38;0.08;0.09;33;640;23.5;53.8
766297.47;6284607.53;0.12;0.11;20;960;18.2;64.2
766297.47;6284609.98;0.11;0.27;18;880;18.5;65.8
766297.34;6284613.06;0.11;0.14;22;880;29.7;46.6
766297.15;6284616.15;0.13;0.11;22;1040;29.7;46.6
766297.1;6284619.31;0.12;0.16;16;960;22.7;43.4
766297.05;6284622.08;0.13;0.08;33;1040;24.2;53.8
766297.02;6284625.75;0.06;0.14;32;480;23.2;54.6
766296.94;6284627.03;0.14;0.14;32;1120;24.4;54.6
766296.9;6284632.12;0.12;0.13;32;960;24;54.6
766296.88;6284633.62;0.11;0.11;23;880;30;45.8
766296.76;6284636.91;0.12;0.4;24;960;24.5;45
766291.74;6284635.84;0.11;0.06;16;880;25.3;51.4
766291.85;6284633.98;0.11;0.08;20;880;27.8;48.2
766291.92;6284629.78;0.16;0.11;17;1280;25.5;53
766291.97;6284627.84;0.11;0.09;19;880;27.3;49
766292.03;6284624.49;0.11;0.09;34;880;24.5;53
766292.13;6284621.13;0.15;0.09;24;1200;20.2;61
766292.16;6284619.51;0.11;0.08;19;880;17.4;65
766292.24;6284615.34;0.18;0.09;31;1440;24;55.4
766292.33;6284612.41;0.11;0.07;26;880;21.4;43.4
766292.41;6284609.87;0.11;0.1;16;880;25.7;51.4
766292.47;6284606.77;0.1;0.1;15;800;25;52.2
766292.58;6284603.95;0.05;0.09;25;400;29.8;44.2
766292.67;6284600.97;0.11;0.09;25;880;21;44.2
766292.78;6284597.57;0.11;0.07;27;880;22.1;42.6
766292.81;6284594.48;0.19;0.06;18;1520;17.4;49.8
766292.83;6284591.97;0.13;0.08;26;1040;21.9;43.4
766292.89;6284589.06;0.14;0.09;28;1120;23.6;41.8
766292.99;6284585.98;0.18;0.08;24;1440;21.6;45
766293.03;6284583.46;0.14;0.07;21;1120;20.9;47.4
766293.13;6284580.41;0.15;0.09;25;1200;21.8;44.2
766293.12;6284577.86;0.11;0.08;20;880;27.8;48.2
766293.23;6284573.93;0.17;0.14;33;1360;25.5;53.8
766293.24;6284570.57;0.18;0.11;27;1440;22.2;58.6
766293.29;6284568.52;0.15;0.17;16;1200;27.1;51.4
766293.43;6284565.84;0.2;0.12;23;1600;21.8;45.8
766293.5;6284562.51;0.11;0.1;25;880;21.1;44.2
766293.55;6284559.29;0.13;0.07;20;1040;28;48.2
766293.62;6284556.29;0.19;0.07;18;1520;27.9;49.8
766293.72;6284552.81;0.13;0.07;22;1040;29.2;46.6
766293.79;6284550.71;0.2;0.07;23;1600;21.2;45.8
766293.83;6284547.55;0.12;0.07;20;960;32.8;48.2
766293.9;6284544.65;0.24;0.06;19;1920;29.7;55.4
766293.94;6284540.81;0.14;0.09;17;1120;31.7;50.6
766294;6284538.5;0.14;0.08;23;1120;28.8;54.6
766294.16;6284535.68;0.17;0.1;17;1360;32.3;50.6
766294.25;6284532.49;0.14;0.06;22;1120;34.3;46.6
766323.82;6284655.01;0.02;0.28;15;160;11.9;82.8
766323.95;6284651.36;0.07;0.22;11;560;19.9;60.4
766324;6284648.96;0.12;0.18;22;960;24.6;51.6
766324.08;6284646.17;0.14;0.16;17;1120;22.6;55.6
766324.16;6284642.48;0.07;0.33;15;560;24.6;57.2
766324.22;6284639.76;0.1;0.17;16;800;21.8;56.4
766324.29;6284637.55;0.11;0.19;7;880;18.8;63.6
766324.4;6284633.53;0.11;0.24;8;880;19.4;62.8
766324.46;6284630.39;0.17;0.23;20;1360;24.8;53.2
766324.51;6284627.69;0.13;0.15;14;1040;21.2;58
766324.62;6284624.33;0.09;0.2;18;720;22.7;54.8
766324.63;6284621.77;0.11;0.2;15;880;21.7;57.2
766324.74;6284619.03;0.13;0.16;19;1040;23.3;54
766324.8;6284616.52;0.13;0.11;15;1040;21.3;57.2
766324.86;6284613.06;0.19;0.12;13;1520;21.3;58.8
766324.95;6284610.34;0.12;0.08;28;960;26.5;46.8
766325.03;6284607.01;0.18;0.11;20;1440;24;53.2
766325.14;6284604.57;0.12;0.09;21;960;23.5;52.4
766325.16;6284601.77;0.18;0.1;24;1440;25.7;50
766325.26;6284599.52;0.11;0.2;15;880;21.7;57.2
766325.27;6284594.98;0.12;0.12;25;960;25.5;49.2
766325.36;6284592.33;0.19;0.11;15;1520;22;57.2
766325.46;6284589.27;0.13;0.11;12;1040;20.2;59.6
766325.57;6284586.14;0.13;0.13;18;1040;22.7;54.8
766325.67;6284584.39;0.08;0.12;24;640;24.5;50
766325.79;6284580.42;0.12;0.09;18;960;22.2;54.8
766325.78;6284577.14;0.12;0.13;16;960;21.7;56.4
766325.82;6284574.62;0.14;0.08;15;1120;21.2;57.2
766326.01;6284571.51;0.13;0.06;16;1040;21.3;56.4
766326.09;6284568.86;0.15;0.07;19;1200;22.9;54
766326.14;6284565.27;0.23;0.15;10;1840;20.9;61.2
766326.17;6284563.24;0.08;0.2;9;640;13.4;78
766326.27;6284556.36;0.17;0.05;12;1360;25.5;59.6
766326.34;6284552.54;0.13;0.12;7;1040;20.2;76.4
766326.41;6284550.87;0.16;0.09;17;1280;13.9;55.6
766326.44;6284547.99;0.17;0.1;17;1360;22.3;55.6
766326.59;6284545.06;0.15;0.09;20;1200;22.5;53.2
766326.71;6284542.36;0.17;0.13;23;1360;23.4;50.8
766326.84;6284539.44;0.16;0.13;20;1280;25.3;53.2
766326.94;6284535.59;0.17;0.04;25;1360;23.9;49.2
766326.91;6284532.86;0.17;0.23;25;1360;25.5;49.2
766323.67;6284531.61;0.21;0.18;28;1680;27.2;46.8
766321.96;6284532.89;0.23;0.12;22;1840;28.8;51.6
766321.8;6284536.29;0.22;0.09;23;1760;25.6;50.8
766321.7;6284539.16;0.17;0.06;23;1360;25.7;50.8
766321.6;6284541.9;0.2;0.09;15;1600;24.7;57.2
766321.56;6284544.78;0.12;0.1;21;960;22;52.4
766321.52;6284547.77;0.16;0.13;21;1280;23.5;52.4
766321.48;6284550.51;0.2;0.11;25;1600;24.3;49.2
766321.37;6284553.73;0.17;0.08;18;1360;26.5;54.8
766321.35;6284557.37;0.22;0.14;13;1760;22.8;64.4
766321.27;6284559.49;0.13;0.13;14;1040;19.2;58
766321.17;6284562.34;0.17;0.12;19;1360;21.1;54
766321.06;6284565.46;0.14;0.11;16;1120;23.5;56.4
766321.04;6284568.57;0.2;0.08;25;1600;21.8;49.2
766320.93;6284571.36;0.25;0.12;12;2000;26.3;67.6
766320.83;6284573.68;0.15;0.1;18;1200;18.1;54.8
766320.77;6284576.86;0.19;0.08;18;1520;22.7;54.8
766320.72;6284579.21;0.14;0.08;19;1120;23;54
766320.58;6284582.11;0.08;0.18;26;640;22.8;48.4
766320.54;6284585.79;0.17;0.1;17;1360;25.9;55.6
766320.5;6284588.61;0.13;0.14;21;1040;22.5;52.4
766320.44;6284591.54;0.13;0.14;26;1040;24;48.4
766320.33;6284594.38;0.2;0.09;20;1600;26.3;53.2
766320.28;6284597.05;0.16;0.2;10;1280;24.1;61.2
766320.24;6284600.18;0.16;0.14;22;1280;20.4;51.6
766320.19;6284603.09;0.23;0.17;20;1840;24.8;53.2
766320.07;6284606.11;0.2;0.12;23;1600;25.1;50.8
766320.01;6284609.29;0.14;0.14;21;1120;25.7;52.4
766319.94;6284611.7;0.19;0.09;26;1520;24.1;48.4
766319.88;6284615.17;0.08;0.16;23;640;26.7;50.8
766319.83;6284617.68;0.12;0.16;29;960;24.4;46
766319.75;6284620.77;0.17;0.19;14;1360;27.8;58
766319.66;6284623.68;0.14;0.13;16;1120;22;56.4
766319.57;6284626.93;0.2;0.18;8;1600;22;62.8
766319.51;6284630.09;0.15;0.16;18;1200;20;54.8
766319.46;6284632.48;0.15;0.17;19;1200;23.1;54
766319.37;6284635.21;0.16;0.15;19;1280;23.6;54
766319.39;6284638.29;0.15;0.39;10;1200;23.6;61.2
766319.35;6284640.16;0.09;0.32;14;720;21.7;58
766319.1;6284644.21;0.18;0.1;21;1440;22.8;52.4
766316.14;6284642.88;0.2;0.22;22;1600;24.3;51.6
766314.26;6284638.35;0.14;0.11;17;1120;26.1;55.6
766314.34;6284635.62;0.14;0.07;16;1120;22.2;56.4
766314.5;6284632.69;0.1;0.08;20;800;21.5;53.2
766314.44;6284628.51;0.09;0.27;28;720;22.7;46.8
766314.48;6284627.05;0.12;0.1;11;960;26;60.4
766314.69;6284622.88;0.15;0.04;14;1200;19.7;77.2
766314.73;6284620.34;0.16;0.14;16;1280;13.4;64.4
766314.77;6284617.82;0.15;0.07;10;1200;18.6;61.2
766314.84;6284614.93;0.11;0.07;19;880;19.4;54
766314.92;6284611.71;0.13;0.1;14;1040;22.4;58
766315.02;6284608.72;0.11;0.1;19;880;20.9;54
766315.07;6284605.63;0.12;0.09;16;960;22.6;56.4
766315.1;6284603.3;0.11;0.2;20;880;21.4;53.2
766315.14;6284599.95;0.16;0.12;14;1280;23.8;66
766315.18;6284597.97;0.13;0.12;10;1040;17.8;61.2
766315.35;6284593.39;0.11;0.13;20;880;19.5;53.2
766315.4;6284591.58;0.17;0.15;8;1360;23.2;62.8
766315.56;6284588.31;0.14;0.12;21;1120;19.5;52.4
766315.66;6284586.46;0.21;0.24;8;1680;24;85.2
766315.79;6284581.63;0.13;0.11;22;1040;12.4;51.6
766315.74;6284579.17;0.15;0.09;23;1200;24.2;50.8
766315.8;6284575.64;0.22;0.08;13;1760;24.7;58.8
766315.86;6284573.43;0.14;0.09;15;1120;21.4;57.2
766315.98;6284570.72;0.1;0.06;25;800;21.3;49.2
766316.04;6284567.9;0.15;0.1;16;1200;24.7;56.4
766316.09;6284565.02;0.13;0.11;9;1040;21.9;62
766316.27;6284561.01;0.13;0.12;28;1040;19.1;46.8
766316.28;6284559.03;0.17;0.15;22;1360;27;51.6
766316.4;6284555.86;0.23;0.18;28;1840;25.1;46.8
766316.46;6284552.45;0.28;0.14;8;2240;29.2;62.8
766316.49;6284550.01;0.14;0.13;20;1120;20.6;53.2
766316.63;6284546.93;0.18;0.09;20;1440;23.6;53.2
766316.74;6284543.78;0.14;0.08;25;1120;23.8;49.2
766316.85;6284541.12;0.2;0.12;17;1600;25.4;55.6
766316.93;6284538.69;0.16;0.18;19;1280;23;54
766317;6284535.61;0.11;0.26;21;880;23.9;52.4
766316.94;6284532.37;0.12;0.15;10;960;24.7;61.2
766312.05;6284531.16;0.22;0.08;20;1760;19.6;53.2
766311.9;6284534.48;0.17;0.22;10;1360;24.3;61.2
766311.85;6284536.71;0.23;0.09;24;1840;20.7;50
766311.79;6284539.72;0.18;0.24;16;1440;26.3;56.4
766311.71;6284542.71;0.22;0.09;26;1760;23.3;48.4
766311.68;6284545.09;0.22;0.07;32;1760;27.1;43.6
766311.61;6284548.22;0.16;0.11;28;1280;30;46.8
766311.53;6284550.86;0.19;0.23;14;1520;27.4;58
766311.44;6284554.17;0.18;0.08;22;1440;22.5;51.6
766311.36;6284557.27;0.15;0.09;20;1200;24.6;53.2
766311.33;6284560.06;0.16;0.07;19;1280;23.4;54
766311.24;6284563.18;0.15;0.07;21;1200;23;52.4
766311.11;6284566.15;0.15;0.06;16;1200;23.7;56.4
766311.04;6284568.91;0.18;0.07;21;1440;21.6;52.4
766310.98;6284571.81;0.2;0.06;19;1600;24.1;54
766310.92;6284574.54;0.15;0.1;22;1200;23.4;51.6
766310.84;6284577.94;0.17;0.07;11;1360;24.4;60.4
766310.79;6284580.58;0.21;0.12;11;1680;20;60.4
766310.72;6284583.52;0.14;0.08;19;1120;20.8;54
766310.63;6284586.7;0.15;0.06;16;1200;22.8;56.4
766310.53;6284589.2;0.17;0.11;23;1360;21.6;50.8
766310.42;6284592.76;0.23;0.06;16;1840;25.2;56.4
766310.41;6284595.07;0.17;0.07;25;1360;22.5;49.2
766310.31;6284598.11;0.19;0.1;22;1520;25.7;51.6
766310.22;6284601;0.16;0.09;21;1280;24.9;52.4
766310.14;6284604.04;0.16;0.12;22;1280;24;51.6
766310.03;6284606.73;0.22;0.08;19;1760;24.7;54
766309.9;6284610.04;0.16;0.07;20;1280;23.8;53.2
