X-Lamb;Y-Lamb;Hauteur (m);Epaisseur (m);Densite (%);Leaf wall area (m².ha-1);Pourcentage de la dose homologuée à appliquer;Pourcentage du taux de recuperation
766655.36;6284839.27;1.2;0.71;78;9600;96.5;23.8
766658.31;6284837.83;1.37;0.46;77;10960;106;24.6
766660.61;6284836.54;1.04;0.45;52;8320;54;44.6
766663.27;6284835.21;1.26;0.34;75;10080;88.7;26.2
766665.96;6284833.8;1.23;0.31;82;9840;93.2;20.6
766668.25;6284832.66;1.19;0.42;82;9520;92.3;20.6
766671.08;6284831.12;1.37;0.49;77;10960;106.9;24.6
766673.33;6284829.93;1.41;0.38;81;11280;113.7;21.4
766675.81;6284828.6;1.22;0.39;83;9760;95.6;19.8
766678.63;6284827.12;1.26;0.4;72;10080;86.9;28.6
766680.9;6284825.88;1.22;0.53;75;9760;89.9;26.2
766683.61;6284824.42;1.12;0.49;76;8960;80.9;25.4
766685.99;6284823.17;1.17;0.29;81;9360;85.9;21.4
766688.6;6284821.8;1.44;0.46;80;11520;118.7;22.2
766690.96;6284820.59;1.24;0.29;83;9920;94.8;19.8
766693.92;6284819.01;1.07;0.71;60;8560;67.8;38.2
766695.89;6284818.06;1.31;0.36;70;10480;88.3;30.2
766699.08;6284816.35;0.99;0.41;68;7920;62.2;31.8
766701.31;6284815.21;1.34;0.46;78;10720;103.9;23.8
766703.64;6284813.93;1.46;0.69;85;11680;138.1;18.2
766705.01;6284813.16;1.09;1.01;67;8720;86.6;32.6
766708.76;6284811.17;1.25;0.31;82;10000;95.3;20.6
766710.92;6284810.07;1.09;0.45;80;8720;81.6;22.2
766712.62;6284809.32;1.19;0.48;39;9520;54.1;55
766715.83;6284807.56;1.24;0.3;74;9920;84.8;27
766718.7;6284806.08;0.84;0.58;40;6720;40.6;54.2
766721.2;6284804.73;1.23;0.36;73;9840;84.3;27.8
766723.14;6284803.68;1.24;0.39;70;9920;82.6;30.2
766726.07;6284802.11;1.14;0.53;64;9120;71.7;35
766728.37;6284800.92;1.22;0.47;73;9760;86.1;27.8
766730.65;6284799.71;1.14;0.43;49;9120;57.5;47
766733.24;6284798.29;1.39;0.35;69;11120;94.6;31
766735.96;6284796.82;1.29;0.39;74;10320;91.7;27
766738.72;6284795.36;1.14;0.36;72;9120;75.6;28.6
766740.97;6284794.21;1.25;0.37;82;10000;96.8;20.6
766743.45;6284792.84;1.41;0.33;70;11280;97.3;30.2
766746.03;6284791.46;1.13;0.4;69;9040;72.9;31
766748.34;6284790.33;1.07;0.4;35;8560;44.2;58.2
766751.48;6284788.69;1.14;0.43;66;9120;71.5;33.4
766754.04;6284787.29;1.22;0.41;78;9760;90.2;23.8
766756.03;6284786.15;1.3;0.3;85;10400;103.9;18.2
766758.36;6284784.9;1.02;0.61;68;8160;68.1;31.8
766761.13;6284783.37;1.33;0.35;82;10640;104.9;20.6
766763.56;6284782.18;1.38;0.36;82;11040;111;20.6
766765.93;6284780.86;1.3;0.43;76;10400;96.3;25.4
766768.79;6284779.35;1.19;0.42;71;9520;80.1;29.4
766770.52;6284778.48;1.31;0.41;67;10480;86.2;32.6
766774.21;6284776.5;0.99;0.32;73;7920;64.5;27.8
766776.43;6284775.3;1.31;0.39;84;10480;106.6;19
766778.58;6284774.16;1.33;0.47;80;10640;105.8;22.2
766781.48;6284772.62;1.32;0.5;76;10560;100.4;25.4
766783.68;6284771.51;1.53;0.28;83;12240;128.5;19.8
766786.38;6284770.02;1.15;0.32;72;9200;75.5;28.6
766788.67;6284768.8;1.23;0.44;67;9840;79.9;32.6
766791.69;6284767.27;1.18;0.44;72;9440;80.7;28.6
766794.12;6284766;0.97;0.42;66;7760;59.5;33.4
766795.96;6284765.11;1.2;0.33;74;9600;82;27
766799.15;6284763.38;1.06;0.44;61;8480;61.8;37.4
766801.38;6284762.18;1.52;0.34;71;12160;111;29.4
766804.01;6284760.85;1.09;0.34;68;8720;67.7;31.8
766806.94;6284759.26;1.17;0.36;66;9360;72.3;33.4
766809.33;6284757.97;1.02;0.37;63;8160;59.5;35.8
766811.99;6284756.6;1.12;0.29;65;8960;66.3;34.2
766813.98;6284755.59;1.24;0.25;69;9920;78.3;31
766810.51;6284753.48;0.67;0.83;70;5360;60.8;30.2
766806.83;6284753.65;1.05;0.73;87;8400;98.3;16.6
766803.98;6284755.18;1.3;0.58;76;10400;100.6;25.4
766801.62;6284756.46;1.31;0.41;75;10480;95.6;26.2
766799.03;6284757.79;1.12;0.68;67;8960;76.3;32.6
766796.45;6284759.26;1.05;0.38;73;8400;70;27.8
766794.13;6284760.47;1.19;0.42;78;9520;87.6;23.8
766791.39;6284761.88;1.37;0.24;74;10960;95.6;27
766789.61;6284762.83;1.5;0.4;76;12000;118;25.4
766786.47;6284764.48;1.32;0.46;73;10560;95.4;27.8
766783.91;6284765.79;1.19;0.49;81;9520;93;21.4
766781.82;6284766.85;1.08;0.4;72;8640;71.8;28.6
766778.73;6284768.53;1.09;0.44;68;8720;69.7;31.8
766776.47;6284769.74;1.74;0.37;77;13920;152.7;24.6
766774.42;6284770.85;1.72;0.35;66;13760;129.1;33.4
766771.5;6284772.41;1.51;0.36;81;12080;125.8;21.4
766769.28;6284773.62;1.12;0.32;74;8960;75.1;27
766766.56;6284775.03;1.24;0.4;67;9920;79.7;32.6
766763.92;6284776.45;1.25;0.31;65;10000;76.6;34.2
766762.07;6284777.41;0.94;0.35;55;7520;49;42.2
766758.91;6284779.19;1.12;0.46;75;8960;79.2;26.2
766756.7;6284780.25;1.17;0.52;60;9360;70.1;38.2
766753.86;6284781.72;1.23;0.31;72;9840;82;28.6
766751.12;6284783.13;1.06;0.44;59;8480;60.2;39
766749.11;6284784.29;1.3;0.5;75;10400;97;26.2
766746.34;6284785.83;1.23;0.36;74;9840;85.4;27
766743.95;6284787.07;1.2;0.51;74;9600;86.4;27
766741.2;6284788.57;1.26;0.28;75;10080;87.1;26.2
766738.67;6284789.85;1.27;0.3;76;10160;89.8;25.4
766736.35;6284791.07;1.25;0.21;78;10000;87.8;23.8
766733.41;6284792.71;1.14;0.27;66;9120;68.2;33.4
766731.32;6284793.88;1.2;0.24;72;9600;77.8;28.6
766728.78;6284795.24;1.19;0.4;74;9520;82.8;27
766726.41;6284796.47;1.19;0.36;73;9520;80.7;27.8
766723.48;6284797.95;1.21;0.29;73;9680;80.8;27.8
766721.09;6284799.25;1.15;0.37;70;9200;74.7;30.2
766718.38;6284800.66;1.31;0.25;81;10480;98.4;21.4
766715.74;6284801.97;1.3;0.42;76;10400;96;25.4
766713.32;6284803.11;1.21;0.35;75;9680;84.4;26.2
766710.34;6284804.83;1.26;0.28;72;10080;83.9;28.6
766708.1;6284805.97;1.62;0.42;78;12960;138.4;23.8
766705.19;6284807.6;0.92;0.52;59;7360;53.1;39
766702.72;6284808.89;1.38;0.47;68;11040;95.7;31.8
766700.29;6284810.18;1.25;0.37;79;10000;93.2;23
766697.85;6284811.42;1.33;0.26;79;10640;98.3;23
766695.53;6284812.64;1.26;0.26;83;10080;96;19.8
766692.84;6284814.06;1.09;0.3;79;8720;77;23
766689.67;6284815.73;1.08;0.39;69;8640;68.9;31
766687.92;6284816.65;1.08;0.41;73;8640;73;27.8
766684.58;6284818.39;1.24;0.28;63;9920;73.1;35.8
766682.8;6284819.36;1.21;0.26;73;9680;80.1;27.8
766680.4;6284820.55;1.2;0.25;73;9600;79;27.8
766677.4;6284822.06;1.09;0.46;62;8720;65;36.6
766674.97;6284823.43;1.14;0.31;75;9120;77.5;26.2
766672.52;6284824.81;1.19;0.37;67;9520;75;32.6
766670.06;6284826.02;1.1;0.56;74;8800;78.9;27
766667.4;6284827.44;1.19;0.51;67;9520;78.2;32.6
766665.15;6284828.67;1.11;0.6;73;8880;79.6;27.8
766661.82;6284830.43;1.07;0.24;74;8560;69.5;27
766659.91;6284831.45;0.85;0.28;73;6800;58.7;27.8
766657.37;6284832.63;1.01;0.39;71;8080;65.6;29.4
766654.62;6284833.99;1.05;0.47;66;8400;65.8;33.4
766652.24;6284833.95;1.57;0.53;74;12560;128.8;27
766651.31;6284830.4;0.95;0.38;57;7600;51.3;40.6
766653.97;6284828.95;1.16;0.3;66;9280;70.3;33.4
766656.97;6284827.26;1.33;0.28;69;10640;86.9;31
766659.37;6284826.01;1.16;0.39;71;9280;76.9;29.4
766662.06;6284824.46;1.19;0.32;70;9520;76.7;30.2
766664.42;6284823.25;1.56;0.41;76;12480;126.1;25.4
766667.66;6284821.6;1.1;0.35;61;8800;62.8;37.4
766669.68;6284820.52;1.14;0.31;73;9120;75.5;27.8
766672.36;6284819.21;1.27;0.39;71;10160;86.5;29.4
766674.92;6284817.89;1.34;0.36;80;10720;103.6;22.2
766677.67;6284816.48;1.11;0.34;71;8880;71.9;29.4
766680.18;6284815.13;1.28;0.33;73;10240;88;27.8
766682.82;6284813.75;1.16;0.39;75;9280;80.9;26.2
766684.96;6284812.64;1.38;0.32;72;11040;96.3;28.6
766688.47;6284810.75;1.04;0.21;59;8320;55.1;39
766690.27;6284809.8;1.11;0.48;62;8880;66.7;36.6
766692.5;6284808.67;1.4;0.41;79;11200;110.5;23
766695.07;6284807.29;1.51;0.3;79;12080;120.4;23
766697.7;6284805.9;1.45;0.31;76;11600;108.9;25.4
766700.61;6284804.36;1.37;0.39;71;10960;96.2;29.4
766702.52;6284803.45;1.14;0.31;79;9120;81.5;23
766705.32;6284801.93;0.95;0.28;63;7600;53.8;35.8
766707.53;6284800.8;1.23;0.35;79;9840;90.7;23
766709.79;6284799.52;1.24;0.27;71;9920;80.8;29.4
766712.09;6284798.23;1.18;0.36;68;9440;74.9;31.8
766714.4;6284796.89;1.03;0.28;68;8240;62.4;31.8
766716.82;6284795.67;1.16;0.3;73;9280;76.8;27.8
766719.71;6284794.24;1.2;0.38;70;9600;79;30.2
766722.35;6284792.91;1.36;0.29;76;10880;98.4;25.4
766724.6;6284791.7;1.07;0.5;72;8560;73.1;28.6
766727.45;6284790.21;1.08;0.35;73;8640;71.6;27.8
766729.98;6284788.91;1.25;0.29;78;10000;89.9;23.8
766732.58;6284787.53;1.11;0.29;73;8880;72.7;27.8
766734.74;6284786.35;0.93;0.32;55;7440;48.1;42.2
766737.73;6284784.64;1.09;0.23;76;8720;72.6;25.4
766740.1;6284783.44;1.27;0.49;70;10160;87.9;30.2
766742.83;6284781.97;1.15;0.46;67;9200;73.8;32.6
766745.17;6284780.7;1.48;0.35;73;11840;109.5;27.8
766747.77;6284779.24;1.12;0.3;70;8960;70.9;30.2
766750.84;6284777.61;1.42;0.34;68;11360;96;31.8
766753.04;6284776.42;1.5;0.37;79;12000;121.7;23
766755.45;6284775.16;0.99;0.33;63;7920;57;35.8
766758.47;6284773.57;1.11;0.34;74;8880;74.7;27
766760.95;6284772.31;1.57;0.38;78;12560;129.6;23.8
766763.23;6284771.12;1.28;0.25;69;10240;81.7;31
766765.74;6284769.76;1;0.34;65;8000;59.2;34.2
766769.13;6284767.95;1.28;0.3;67;10240;80.8;32.6
766771.05;6284766.93;1.22;0.4;81;9760;93.5;21.4
766773.66;6284765.46;1.5;0.39;72;12000;111.8;28.6
766776.18;6284764.1;1.14;0.4;71;9120;75.6;29.4
766779.08;6284762.57;1.2;0.29;81;9600;88.6;21.4
766781.43;6284761.37;1.29;0.31;73;10320;88.4;27.8
766784.43;6284759.84;1.22;0.42;74;9760;86;27
766786.75;6284758.67;1.12;0.32;82;8960;83.2;20.6
766789.24;6284757.32;1.41;0.41;76;11280;107.5;25.4
766791.86;6284755.95;1.16;0.32;78;9280;82.4;23.8
766794.45;6284754.61;1.05;0.32;71;8400;67;29.4
766797.12;6284753.19;1.3;0.33;76;10400;93.5;25.4
766799.5;6284751.97;1.36;0.36;79;10880;104.5;23
766801.35;6284751;1.15;0.52;86;9200;95.9;17.4
766792.4;6284750.13;0.84;0.49;76;6720;66.2;25.4
766790.13;6284751.25;1.16;0.44;79;9280;86.5;23
766787.8;6284752.45;1.24;0.34;68;9920;79.4;31.8
766785.28;6284753.83;1.11;0.54;79;8880;84.5;23
766782.87;6284755.09;1.19;0.47;84;9520;96;19
766780.33;6284756.58;1.29;0.51;81;10320;103.9;21.4
766777.56;6284758.04;1.09;0.48;68;8720;70.5;31.8
766775.86;6284758.98;1.5;0.33;66;12000;101.6;33.4
766772.39;6284760.7;1.26;0.3;67;10080;79.1;32.6
766770.25;6284761.82;1.17;0.58;82;9360;94.6;20.6
766767.48;6284763.25;1.44;0.3;77;11520;108.9;24.6
766765;6284764.54;1.21;0.23;74;9680;80.4;27
766762.6;6284765.81;1.31;0.32;81;10480;100.4;21.4
766760.29;6284767.08;1.25;0.43;75;10000;90.2;26.2
766757.53;6284768.56;1.36;0.36;75;10880;99.2;26.2
766755.03;6284769.87;1.1;0.41;73;8800;74.5;27.8
766752.27;6284771.29;1.25;0.36;71;10000;83.9;29.4
766749.99;6284772.59;1.32;0.59;77;10560;104.5;24.6
766747.55;6284773.93;1.03;0.46;77;8240;74;24.6
766744.97;6284775.29;1.18;0.41;83;9440;92.1;19.8
766742.37;6284776.58;1.47;0.58;59;11760;97;39
766739.77;6284778.02;1.28;0.38;79;10240;96.5;23
766737.41;6284779.38;1.09;0.41;72;8720;72.8;28.6
766735.14;6284780.5;1.06;0.33;76;8480;72.4;25.4
766732.49;6284781.91;1.14;0.47;80;9120;86.5;22.2
766729.78;6284783.25;1.35;0.56;70;10800;97.6;30.2
766727.29;6284784.52;1.29;0.44;58;10320;75.9;39.8
766725.08;6284785.66;1.17;0.54;63;9360;73.3;35.8
766721.63;6284787.47;1.29;0.54;78;10320;100.9;23.8
766719.58;6284788.58;1.13;0.27;71;9040;71.9;29.4
766716.63;6284790.12;1.13;0.35;76;9040;78.5;25.4
766713.95;6284791.56;1.2;0.33;68;9600;75.9;31.8
766711.84;6284792.69;1.1;0.26;63;8800;62.7;35.8
766709.08;6284794.25;1.09;0.28;71;8720;69.1;29.4
766706.41;6284795.69;1.11;0.57;62;8880;68.6;36.6
766704.02;6284797.02;1.11;0.33;68;8880;69;31.8
766701.63;6284798.27;1.29;0.33;80;10320;97.3;22.2
766698.66;6284799.76;1.14;0.3;83;9120;85.5;19.8
766696.09;6284801.14;1.04;0.45;61;8320;60.6;37.4
766693.62;6284802.42;1.47;0.35;72;11760;106.9;28.6
766690.86;6284803.84;1.3;0.29;75;10400;91.2;26.2
766688.19;6284805.31;1.12;0.34;77;8960;78.5;24.6
766685.85;6284806.5;1.14;0.29;75;9120;76.9;26.2
766683.19;6284807.94;1.34;0.38;79;10720;102.9;23
766680.95;6284809.09;1.21;0.32;82;9680;91.4;20.6
766678.06;6284810.59;1.29;0.42;80;10320;99.9;22.2
766675.52;6284811.97;1.2;0.41;74;9600;83.9;27
766672.95;6284813.36;1.08;0.46;85;8640;87.9;18.2
766670.34;6284814.74;1.07;0.49;67;8560;68.4;32.6
766667.59;6284816.19;1.29;0.32;79;10320;95.9;23
766665.11;6284817.37;1.06;0.37;77;8480;74.2;24.6
766663.42;6284818.21;1.1;0.27;64;8800;63.7;35
766659.7;6284820.23;0.96;0.43;46;7680;45.7;49.4
766657.41;6284821.52;1.02;0.4;74;8160;69.1;27
766654.94;6284822.8;1.02;0.53;73;8160;70.9;27.8
766652.12;6284824.26;1.13;0.47;79;9040;84.5;23
766650.27;6284825.05;0.8;0.44;34;6400;34.1;59
766647.05;6284823.97;1.07;0.48;70;8560;70.9;30.2
766647.58;6284820.79;1.33;0.43;75;10640;98.1;26.2
766650.83;6284819.09;1.19;0.33;75;9520;82.2;26.2
766652.42;6284818.32;1.3;0.35;75;10400;92.9;26.2
766655;6284816.93;1.15;0.31;72;9200;75.3;28.6
766657.63;6284815.53;1.42;0.28;86;11360;119;17.4
766660.44;6284814.08;1.05;0.28;68;8400;63.8;31.8
766662.36;6284813.05;1.17;0.34;78;9360;83.8;23.8
766665.6;6284811.3;1.12;0.77;74;8960;86;27
766667.48;6284810.31;1.27;0.37;80;10160;96.5;22.2
766670.07;6284808.97;1.02;1.27;13;8160;49.8;75.8
766672.84;6284807.52;1.31;0.37;79;10480;99.4;23
766675.49;6284806.2;1.1;0.73;62;8800;72.1;36.6
766677.09;6284805.34;1.14;1.07;42;9120;70.5;52.6
766679.95;6284803.74;1.24;0.43;72;9920;85.9;28.6
766682.45;6284802.51;1.04;0.25;60;8320;56.4;38.2
766684.89;6284801.25;1.27;0.28;68;10160;80.5;31.8
766687.42;6284799.92;1.13;0.34;77;9040;79.3;24.6
766689.81;6284798.63;1.23;0.26;67;9840;75.8;32.6
766692.61;6284797.22;1.23;0.45;74;9840;87.6;27
766694.72;6284796.01;1.04;0.32;75;8320;69.9;26.2
766697.77;6284794.39;1.09;0.26;28;8720;39.6;63.8
766700.16;6284793.17;1.06;0.49;74;8480;74.1;27
766702.58;6284791.84;1.22;0.23;76;9760;83.3;25.4
766704.87;6284790.55;1.06;0.48;73;8480;72.9;27.8
766707.03;6284789.47;1.31;0.36;74;10480;92.9;27
766709.91;6284787.9;0.95;0.41;73;7600;64.8;27.8
766712.24;6284786.66;0.95;0.35;69;7600;59.3;31
766714.68;6284785.43;0.88;0.28;71;7040;57.6;29.4
766717.06;6284784.17;1.13;0.27;72;9040;72.9;28.6
766720.13;6284782.51;1.11;0.43;68;8880;71;31.8
766722.27;6284781.41;1.44;0.47;78;11520;115.9;23.8
766724.89;6284780.06;1.19;0.4;78;9520;87.1;23.8
766727.51;6284778.65;1.11;0.44;58;8880;62.6;39.8
766730.73;6284776.94;1.11;0.42;69;8880;71.7;31
766732.71;6284775.96;1.12;0.55;70;8960;76.4;30.2
766735.19;6284774.56;1.16;0.3;67;9280;71.1;32.6
766738;6284773.08;1.16;0.25;74;9280;76.7;27
766740.34;6284771.95;1.55;0.34;77;12400;123.7;24.6
766742.85;6284770.57;1.51;0.33;73;12080;112.4;27.8
766744.93;6284769.54;1.1;0.48;61;8800;65.2;37.4
766748.21;6284767.72;1.16;0.38;77;9280;82.9;24.6
766750.76;6284766.29;1.41;0.35;83;11280;115.5;19.8
766753.38;6284764.85;1.24;0.34;72;9920;83.6;28.6
766755.88;6284763.53;1.11;0.39;63;8880;65.8;35.8
766758.5;6284762.09;1.19;0.36;69;9520;76.7;31
766760.88;6284760.83;1.26;0.38;78;10080;93.3;23.8
766763.45;6284759.47;1.14;0.55;77;9120;85.3;24.6
766765.98;6284758.21;1.21;0.4;78;9680;89;23.8
766768.42;6284756.84;1.16;0.32;71;9280;75.4;29.4
766771.14;6284755.48;1.36;0.39;82;10880;109.5;20.6
766773.64;6284754.11;1.14;0.38;69;9120;73.1;31
766776.25;6284752.8;1.14;0.45;73;9120;78.7;27.8
766778.23;6284751.75;1.32;0.28;70;10560;87.1;30.2
766781.66;6284749.95;1.22;0.41;67;9760;78.4;32.6
766784.01;6284748.71;1.04;0.36;60;8320;58.3;38.2
766785.97;6284747.2;1.14;0.6;74;9120;83.2;27
766656.83;6284841.32;1.49;0.44;74;11920;115;27
766659.59;6284839.99;1.11;0.38;60;8880;63.2;38.2
766661.95;6284838.65;1.38;0.37;72;11040;97.8;28.6
766664.49;6284837.38;1.48;0.37;75;11840;113.1;26.2
766667.19;6284835.98;1.21;0.51;56;9680;69.3;41.4
766669.37;6284834.89;1.6;0.42;76;12800;132;25.4
766672.19;6284833.37;1.16;0.33;74;9280;78.6;27
766674.5;6284832.15;1.17;0.31;78;9360;83.1;23.8
766677.25;6284830.66;1.01;0.41;64;8080;60.3;35
766679.41;6284829.53;1.3;0.35;77;10400;95.3;24.6
766681.98;6284828.14;1.42;0.5;57;11360;87.5;40.6
766684.57;6284826.73;1.14;0.47;54;9120;62;43
766686.58;6284825.64;1.25;0.52;71;10000;87.9;29.4
766689.86;6284823.93;1.55;0.46;72;12400;120.4;28.6
766692.29;6284822.68;1.34;0.98;60;10720;100.5;38.2
766694.76;6284821.4;1.35;0.64;75;10800;106.6;26.2
766697.35;6284820.05;1.69;0.49;59;13520;119.2;39
766699.63;6284818.89;1.45;0.59;70;11600;109.5;30.2
766702.77;6284817.24;1.12;0.96;68;8960;88;31.8
766705.13;6284815.98;1.13;0.39;58;9040;63.1;39.8
766707.02;6284814.9;1.24;0.39;67;9920;79.5;32.6
766709.9;6284813.39;1.3;0.39;69;10400;87;31
766711.71;6284812.47;1.24;0.8;62;9920;85.5;36.6
766714.62;6284811.04;1.66;0.61;63;13280;125.8;35.8
766717.43;6284809.58;1.2;0.92;54;9600;79.6;43
766719.22;6284808.64;1.27;0.66;75;10160;98.6;26.2
766721.84;6284807.35;1.07;0.28;45;8560;48.5;50.2
766724.6;6284805.74;1.59;0.36;77;12720;129.9;24.6
766726.8;6284804.51;1.21;0.5;73;9680;86;27.8
766729.51;6284803.14;1.12;0.43;75;8960;78.6;26.2
766731.96;6284801.86;1.4;0.4;70;11200;98.3;30.2
766734.35;6284800.52;1.01;0.41;61;8080;58;37.4
766736.58;6284799.36;1.09;0.44;40;8720;48.7;54.2
766739.62;6284797.73;1.36;0.47;66;10880;91.3;33.4
766741.93;6284796.53;1.35;0.44;63;10800;86.2;35.8
766745.07;6284794.84;1.25;0.3;68;10000;79.3;31.8
766746.69;6284793.95;1.24;0.31;55;9920;66.6;42.2
766749.77;6284792.39;1.12;0.31;77;8960;77.8;24.6
766752.3;6284791.06;1.09;0.35;58;8720;59.7;39.8
766754.68;6284789.78;1.29;0.5;86;10320;110.5;17.4
766757.37;6284788.27;1.31;0.33;71;10480;88.6;29.4
766759.57;6284787.09;1.2;0.55;77;9600;90.9;24.6
766761.63;6284785.9;1.19;0.52;45;9520;59.1;50.2
766765.08;6284784.19;1.46;0.41;73;11680;109.1;27.8
766766.72;6284783.27;1.1;0.41;37;8800;46.9;56.6
766770.19;6284781.43;1.66;0.27;74;13280;131.1;27
766772.54;6284780.24;1.63;0.39;63;13040;114.4;35.8
766774.58;6284779.11;1.4;0.38;67;11200;94;32.6
766776.93;6284777.82;1.15;0.46;49;9200;58.6;47
766780.03;6284776.22;1.54;0.28;73;12320;114.4;27.8
766782.37;6284774.97;1.38;0.35;77;11040;103.8;24.6
766784.88;6284773.69;1.49;0.43;81;11920;125.5;21.4
766787.68;6284772.17;1.17;0.33;61;9360;67.2;37.4
766790.16;6284770.86;1.29;0.27;77;10320;92;24.6
766792.29;6284769.77;1.38;0.39;73;11040;99.7;27.8
766795.24;6284768.23;1.53;0.41;69;12240;111.6;31
766797.41;6284767.15;1.18;0.43;67;9440;75.6;32.6
766800.31;6284765.57;1.57;0.37;67;12560;112.2;32.6
766802.91;6284764.18;1.2;0.43;65;9600;75.2;34.2
766805.43;6284762.9;1.37;0.32;67;10960;89.5;32.6
766807.69;6284761.74;1.06;0.58;27;8480;43.4;64.6
766811.02;6284759.88;1;0.36;64;8000;58.8;35
766813.12;6284758.83;1.12;0.42;78;8960;81.4;23.8
766815.64;6284757.52;1.26;0.55;79;10080;99.4;23
766815.88;6284756.19;1.1;0.59;55;8800;62.4;42.2
766806.94;6284756.43;1.37;0.46;40;10960;65.9;54.2
766805.14;6284757.41;1.42;0.31;79;11360;109.7;23
766802.58;6284758.79;1.04;0.62;47;8320;54.4;48.6
766800.25;6284759.97;1.41;0.51;58;11280;87.9;39.8
766797.67;6284761.43;1.16;0.37;68;9280;73.6;31.8
766794.95;6284762.87;1.12;0.29;72;8960;72.5;28.6
766792.65;6284764.05;1.54;0.33;76;12320;120.7;25.4
766790.28;6284765.27;1.16;0.38;78;9280;83.9;23.8
766787.93;6284766.54;1.57;0.46;71;12560;121.4;29.4
766784.93;6284768.07;1.42;0.46;68;11360;99.6;31.8
766782.64;6284769.26;1.49;0.4;75;11920;115.3;26.2
766780.1;6284770.59;1.31;0.43;65;10480;84.5;34.2
766777.74;6284771.92;1.43;0.36;76;11440;108.3;25.4
766775.21;6284773.25;1.18;0.38;73;9440;80.4;27.8
766772.49;6284774.72;1.26;0.46;69;10080;85.1;31
766769.45;6284776.34;1.33;0.32;67;10640;85.7;32.6
766767.93;6284777.15;1.44;0.44;80;11520;118;22.2
766764.91;6284778.76;1.46;0.38;79;11680;116.9;23
766763.18;6284779.67;1.33;0.31;69;10640;87.6;31
766759.96;6284781.46;1.46;0.33;66;11680;97.5;33.4
766757.39;6284782.72;1.51;0.48;70;12080;113.1;30.2
766755.01;6284783.94;1.56;0.46;77;12480;129.6;24.6
766752.52;6284785.19;1.14;0.41;52;9120;59.4;44.6
766750.21;6284786.53;1.05;0.45;35;8400;44.2;58.2
766746.67;6284788.49;1.52;0.36;55;12160;91;42.2
766745.38;6284789.17;1.45;0.5;66;11600;101.5;33.4
766742.64;6284790.64;1.29;0.55;57;10320;77.3;40.6
766739.54;6284792.23;1.34;0.36;68;10720;88.8;31.8
766737.72;6284793.2;1.45;0.6;37;11600;72;56.6
766735.16;6284794.57;1.44;0.46;58;11520;89.5;39.8
766732.52;6284796.08;1.18;0.43;63;9440;71.7;35.8
766729.95;6284797.46;1.28;0.31;79;10240;94.5;23
766728.1;6284798.45;1.03;0.44;44;8240;48.1;51
766724.65;6284800.14;1.1;0.37;59;8800;61.5;39
766722.16;6284801.51;1.25;0.35;64;10000;76.5;35
766719.54;6284802.89;1.16;0.28;72;9280;75.4;28.6
766716.96;6284804.16;1.61;0.37;75;12880;129.6;26.2
766714.45;6284805.34;1.38;0.52;66;11040;94.6;33.4
766711.72;6284806.93;1.46;0.33;76;11680;110.7;25.4
766709.44;6284808.1;1.05;0.36;61;8400;59.7;37.4
766706.62;6284809.69;1.42;0.35;63;11360;90.5;35.8
766704.24;6284810.95;1.29;0.35;58;10320;73.9;39.8
